freq,psd_x,psd_y,psd_z,psd_xyz
0.0,1.132e+03,5.329e+01,5.670e+01,1.242e+03
1.6,6.550e+02,9.098e+01,8.212e+01,8.281e+02
3.1,4.213e+01,8.051e+01,7.900e+01,2.016e+02
4.7,4.055e+02,8.274e+01,8.040e+01,5.686e+02
6.2,1.423e+03,7.110e+01,7.807e+01,1.572e+03
7.8,2.300e+03,7.189e+01,8.750e+01,2.460e+03
9.3,2.797e+03,7.360e+01,8.780e+01,2.959e+03
10.9,3.914e+03,7.775e+01,8.104e+01,4.072e+03
12.4,5.270e+03,8.359e+01,8.995e+01,5.444e+03
14.0,6.910e+03,8.789e+01,9.523e+01,7.093e+03
15.5,8.955e+03,9.285e+01,1.013e+02,9.149e+03
17.1,1.126e+04,9.567e+01,1.069e+02,1.146e+04
18.6,1.385e+04,9.720e+01,1.094e+02,1.405e+04
20.2,1.692e+04,9.926e+01,1.085e+02,1.713e+04
21.7,2.015e+04,1.043e+02,1.195e+02,2.037e+04
23.3,2.326e+04,8.759e+01,1.520e+02,2.350e+04
24.8,2.651e+04,1.007e+02,1.762e+02,2.679e+04
26.4,3.119e+04,1.188e+02,2.121e+02,3.152e+04
27.9,3.671e+04,1.293e+02,2.564e+02,3.710e+04
29.5,4.337e+04,1.415e+02,3.073e+02,4.382e+04
31.0,5.100e+04,1.767e+02,3.650e+02,5.154e+04
32.6,5.993e+04,2.244e+02,4.365e+02,6.059e+04
34.1,7.094e+04,2.803e+02,5.115e+02,7.173e+04
35.7,8.449e+04,3.383e+02,5.506e+02,8.538e+04
37.2,9.995e+04,4.205e+02,5.529e+02,1.009e+05
38.8,1.183e+05,5.132e+02,6.228e+02,1.195e+05
40.3,1.396e+05,6.231e+02,7.202e+02,1.409e+05
41.9,1.653e+05,7.014e+02,7.937e+02,1.668e+05
43.4,1.973e+05,7.600e+02,8.729e+02,1.989e+05
45.0,2.383e+05,9.040e+02,9.218e+02,2.402e+05
46.5,2.910e+05,1.056e+03,1.167e+03,2.932e+05
48.1,3.595e+05,1.368e+03,1.545e+03,3.625e+05
49.6,4.576e+05,1.818e+03,1.971e+03,4.614e+05
51.2,5.982e+05,2.605e+03,2.380e+03,6.032e+05
52.7,7.966e+05,3.447e+03,2.986e+03,8.030e+05
54.3,1.093e+06,5.006e+03,4.086e+03,1.102e+06
55.8,1.528e+06,7.504e+03,5.978e+03,1.542e+06
57.4,2.277e+06,1.127e+04,9.858e+03,2.298e+06
58.9,3.619e+06,1.623e+04,1.559e+04,3.651e+06
60.5,5.650e+06,2.364e+04,3.080e+04,5.704e+06
62.0,6.520e+06,3.387e+04,4.746e+04,6.602e+06
63.6,6.131e+06,4.142e+04,5.737e+04,6.230e+06
65.1,5.252e+06,4.265e+04,5.882e+04,5.353e+06
66.7,4.085e+06,3.919e+04,5.084e+04,4.176e+06
68.3,3.112e+06,4.045e+04,4.423e+04,3.196e+06
69.8,2.363e+06,4.855e+04,4.366e+04,2.455e+06
71.4,1.738e+06,5.129e+04,4.372e+04,1.833e+06
72.9,1.283e+06,4.828e+04,4.441e+04,1.376e+06
74.5,9.694e+05,4.541e+04,4.325e+04,1.058e+06
76.0,7.268e+05,4.673e+04,4.141e+04,8.150e+05
77.6,5.789e+05,4.819e+04,3.905e+04,6.661e+05
79.1,4.825e+05,5.107e+04,3.817e+04,5.717e+05
80.7,3.946e+05,5.530e+04,3.959e+04,4.895e+05
82.2,3.057e+05,5.645e+04,4.025e+04,4.024e+05
83.8,2.451e+05,5.116e+04,3.988e+04,3.361e+05
85.3,2.181e+05,3.522e+04,3.375e+04,2.870e+05
86.9,2.007e+05,2.185e+04,2.469e+04,2.472e+05
88.4,1.821e+05,1.802e+04,1.945e+04,2.196e+05
90.0,1.589e+05,1.521e+04,1.631e+04,1.904e+05
91.5,1.439e+05,1.838e+04,1.611e+04,1.784e+05
93.1,1.258e+05,2.414e+04,1.459e+04,1.646e+05
94.6,1.196e+05,3.083e+04,1.622e+04,1.667e+05
96.2,1.191e+05,3.355e+04,1.857e+04,1.712e+05
97.7,1.011e+05,2.430e+04,1.605e+04,1.415e+05
99.3,8.904e+04,1.771e+04,1.408e+04,1.208e+05
100.8,8.243e+04,1.743e+04,1.302e+04,1.129e+05
102.4,7.479e+04,3.809e+04,1.599e+04,1.289e+05
103.9,8.205e+04,8.485e+04,2.666e+04,1.936e+05
105.5,1.021e+05,1.433e+05,4.360e+04,2.890e+05
107.0,1.240e+05,1.554e+05,5.564e+04,3.351e+05
108.6,1.296e+05,1.349e+05,5.868e+04,3.231e+05
110.1,1.298e+05,1.238e+05,5.915e+04,3.127e+05
111.7,1.282e+05,1.161e+05,5.728e+04,3.015e+05
113.2,1.340e+05,1.109e+05,5.920e+04,3.041e+05
114.8,1.520e+05,1.080e+05,6.870e+04,3.287e+05
116.3,1.628e+05,9.318e+04,7.295e+04,3.289e+05
117.9,1.709e+05,7.988e+04,7.716e+04,3.280e+05
119.4,1.822e+05,7.722e+04,9.456e+04,3.540e+05
121.0,2.016e+05,7.678e+04,1.115e+05,3.899e+05
122.5,2.375e+05,8.068e+04,1.252e+05,4.434e+05
124.1,2.987e+05,8.718e+04,1.386e+05,5.245e+05
125.6,3.151e+05,8.858e+04,1.373e+05,5.410e+05
127.2,3.230e+05,8.700e+04,1.302e+05,5.402e+05
128.7,3.608e+05,8.390e+04,1.280e+05,5.727e+05
130.3,4.049e+05,8.459e+04,1.338e+05,6.233e+05
131.9,4.357e+05,8.496e+04,1.413e+05,6.619e+05
133.4,1.918e+05,4.981e+04,6.247e+04,3.040e+05
135.0,3.304e+04,3.434e+04,1.467e+04,8.206e+04
136.5,2.792e+04,3.676e+04,1.405e+04,7.873e+04
138.1,3.077e+04,3.700e+04,1.620e+04,8.398e+04
139.6,3.451e+04,3.479e+04,1.881e+04,8.810e+04
141.2,3.784e+04,3.225e+04,2.146e+04,9.155e+04
142.7,4.072e+04,3.036e+04,2.312e+04,9.420e+04
144.3,4.040e+04,2.919e+04,2.312e+04,9.271e+04
145.8,4.157e+04,2.824e+04,2.365e+04,9.346e+04
147.4,4.068e+04,2.593e+04,2.248e+04,8.909e+04
148.9,3.705e+04,2.336e+04,2.000e+04,8.042e+04
150.5,3.319e+04,2.111e+04,1.746e+04,7.176e+04
152.0,3.037e+04,1.804e+04,1.543e+04,6.383e+04
153.6,2.694e+04,1.789e+04,1.355e+04,5.838e+04
155.1,2.475e+04,1.781e+04,1.266e+04,5.522e+04
156.7,2.206e+04,1.538e+04,1.122e+04,4.867e+04
158.2,1.898e+04,1.289e+04,9.712e+03,4.158e+04
159.8,1.614e+04,1.253e+04,8.757e+03,3.743e+04
161.3,1.335e+04,1.242e+04,7.330e+03,3.310e+04
162.9,1.080e+04,1.149e+04,5.929e+03,2.822e+04
164.4,1.039e+04,1.115e+04,6.047e+03,2.759e+04
166.0,1.106e+04,1.178e+04,7.472e+03,3.031e+04
167.5,1.106e+04,1.124e+04,9.194e+03,3.149e+04
169.1,1.195e+04,1.107e+04,1.052e+04,3.354e+04
170.6,1.335e+04,1.316e+04,1.211e+04,3.862e+04
172.2,1.531e+04,1.677e+04,1.365e+04,4.573e+04
173.7,1.561e+04,2.127e+04,1.488e+04,5.176e+04
175.3,1.552e+04,2.612e+04,1.601e+04,5.765e+04
176.8,1.591e+04,3.241e+04,1.791e+04,6.623e+04
178.4,1.657e+04,4.285e+04,2.126e+04,8.068e+04
179.9,1.951e+04,5.424e+04,2.612e+04,9.987e+04
181.5,2.882e+04,6.010e+04,3.312e+04,1.220e+05
183.0,3.809e+04,6.310e+04,3.874e+04,1.399e+05
184.6,5.062e+04,6.706e+04,4.458e+04,1.623e+05
186.1,6.615e+04,6.247e+04,4.916e+04,1.778e+05
187.7,7.855e+04,5.483e+04,5.211e+04,1.855e+05
189.2,9.096e+04,5.029e+04,5.689e+04,1.981e+05
190.8,1.094e+05,4.540e+04,6.486e+04,2.197e+05
192.3,1.295e+05,3.979e+04,7.245e+04,2.417e+05
193.9,1.485e+05,3.244e+04,7.780e+04,2.587e+05
195.4,1.679e+05,2.609e+04,8.782e+04,2.818e+05
197.0,1.865e+05,2.524e+04,1.031e+05,3.148e+05
198.6,2.107e+05,2.732e+04,1.210e+05,3.590e+05
