freq,psd_x,psd_y,psd_z,psd_xyz
0.0,7.194e+02,2.023e+01,4.604e+01,7.857e+02
1.6,4.170e+02,2.511e+01,4.708e+01,4.892e+02
3.1,2.819e+01,1.725e+01,2.687e+01,7.230e+01
4.7,3.836e+02,1.803e+01,2.549e+01,4.271e+02
6.2,1.339e+03,1.709e+01,2.563e+01,1.382e+03
7.8,2.246e+03,1.789e+01,2.819e+01,2.293e+03
9.3,3.302e+03,1.967e+01,2.830e+01,3.350e+03
10.9,4.536e+03,2.051e+01,2.776e+01,4.584e+03
12.5,5.986e+03,1.967e+01,2.871e+01,6.034e+03
14.0,7.885e+03,2.195e+01,3.186e+01,7.939e+03
15.6,1.029e+04,2.609e+01,3.194e+01,1.035e+04
17.1,1.286e+04,2.901e+01,3.376e+01,1.292e+04
18.7,1.524e+04,3.068e+01,3.351e+01,1.531e+04
20.3,1.811e+04,3.292e+01,3.008e+01,1.817e+04
21.8,2.091e+04,3.826e+01,3.303e+01,2.098e+04
23.4,2.601e+04,5.422e+01,4.720e+01,2.611e+04
24.9,3.117e+04,6.460e+01,6.885e+01,3.130e+04
26.5,3.359e+04,5.955e+01,7.575e+01,3.372e+04
28.0,3.684e+04,5.810e+01,8.764e+01,3.699e+04
29.6,4.376e+04,6.645e+01,8.593e+01,4.391e+04
31.2,5.315e+04,7.883e+01,8.120e+01,5.331e+04
32.7,6.472e+04,9.692e+01,9.246e+01,6.491e+04
34.3,7.894e+04,1.145e+02,1.014e+02,7.915e+04
35.8,9.689e+04,1.255e+02,1.059e+02,9.712e+04
37.4,1.198e+05,1.909e+02,1.239e+02,1.202e+05
38.9,1.466e+05,4.795e+02,1.010e+02,1.471e+05
40.5,1.818e+05,7.581e+02,6.549e+01,1.826e+05
42.1,2.277e+05,9.105e+02,7.491e+01,2.286e+05
43.6,2.827e+05,1.154e+03,1.325e+02,2.840e+05
45.2,3.648e+05,1.438e+03,2.832e+02,3.666e+05
46.7,4.906e+05,1.730e+03,5.867e+02,4.929e+05
48.3,6.573e+05,2.056e+03,1.417e+03,6.607e+05
49.8,8.742e+05,2.529e+03,3.991e+03,8.808e+05
51.4,1.183e+06,2.575e+03,6.763e+03,1.192e+06
53.0,1.651e+06,3.960e+03,1.735e+04,1.673e+06
54.5,2.282e+06,8.056e+03,5.586e+04,2.346e+06
56.1,2.718e+06,1.249e+04,1.168e+05,2.847e+06
57.6,2.799e+06,1.717e+04,1.972e+05,3.013e+06
59.2,2.181e+06,1.787e+04,2.246e+05,2.423e+06
60.8,1.551e+06,1.525e+04,1.817e+05,1.748e+06
62.3,1.296e+06,1.232e+04,1.321e+05,1.440e+06
63.9,1.049e+06,1.016e+04,9.339e+04,1.153e+06
65.4,7.361e+05,8.504e+03,6.086e+04,8.055e+05
67.0,5.927e+05,9.130e+03,4.631e+04,6.481e+05
68.5,5.653e+05,1.030e+04,4.094e+04,6.166e+05
70.1,4.703e+05,1.026e+04,3.181e+04,5.123e+05
71.7,3.584e+05,1.029e+04,2.573e+04,3.945e+05
73.2,2.870e+05,1.003e+04,2.296e+04,3.200e+05
74.8,2.753e+05,9.682e+03,2.113e+04,3.061e+05
76.3,2.574e+05,9.737e+03,1.955e+04,2.867e+05
77.9,2.026e+05,8.762e+03,1.725e+04,2.286e+05
79.4,1.641e+05,7.602e+03,1.442e+04,1.861e+05
81.0,1.468e+05,8.721e+03,1.413e+04,1.696e+05
82.6,1.325e+05,8.158e+03,1.326e+04,1.540e+05
84.1,1.220e+05,7.508e+03,1.156e+04,1.411e+05
85.7,1.182e+05,6.468e+03,9.966e+03,1.346e+05
87.2,1.159e+05,4.854e+03,8.074e+03,1.289e+05
88.8,1.034e+05,4.127e+03,6.224e+03,1.137e+05
90.3,8.212e+04,4.926e+03,5.523e+03,9.257e+04
91.9,6.547e+04,7.651e+03,6.679e+03,7.980e+04
93.5,5.401e+04,9.564e+03,7.938e+03,7.151e+04
95.0,4.577e+04,1.038e+04,8.337e+03,6.448e+04
96.6,3.911e+04,1.553e+04,1.168e+04,6.632e+04
98.1,3.144e+04,2.441e+04,1.682e+04,7.266e+04
99.7,2.929e+04,3.259e+04,1.983e+04,8.170e+04
101.3,3.036e+04,3.398e+04,1.890e+04,8.324e+04
102.8,3.239e+04,3.154e+04,1.588e+04,7.981e+04
104.4,3.271e+04,2.732e+04,1.279e+04,7.282e+04
105.9,3.048e+04,2.055e+04,1.089e+04,6.192e+04
107.5,2.650e+04,1.806e+04,1.610e+04,6.066e+04
109.0,2.092e+04,4.411e+04,3.785e+04,1.029e+05
110.6,1.736e+04,8.476e+04,6.360e+04,1.657e+05
112.2,1.662e+04,8.559e+04,7.100e+04,1.732e+05
113.7,1.975e+04,8.745e+04,7.365e+04,1.809e+05
115.3,2.738e+04,9.267e+04,7.197e+04,1.920e+05
116.8,3.069e+04,7.347e+04,6.138e+04,1.655e+05
118.4,2.740e+04,4.917e+04,5.238e+04,1.290e+05
119.9,2.534e+04,5.289e+04,5.258e+04,1.308e+05
121.5,3.335e+04,6.902e+04,6.769e+04,1.701e+05
123.1,7.152e+04,1.206e+05,1.102e+05,3.023e+05
124.6,8.866e+04,1.268e+05,1.111e+05,3.266e+05
126.2,7.181e+04,8.443e+04,8.619e+04,2.424e+05
127.7,7.089e+04,6.278e+04,7.759e+04,2.113e+05
129.3,9.088e+04,6.718e+04,9.241e+04,2.505e+05
130.8,9.257e+04,6.394e+04,1.045e+05,2.610e+05
132.4,6.616e+04,4.214e+04,8.409e+04,1.924e+05
134.0,1.582e+04,1.343e+04,2.345e+04,5.271e+04
135.5,3.578e+03,6.772e+03,9.161e+03,1.951e+04
137.1,4.180e+03,7.625e+03,1.027e+04,2.208e+04
138.6,5.514e+03,8.480e+03,1.189e+04,2.588e+04
140.2,6.944e+03,8.940e+03,1.328e+04,2.916e+04
141.8,8.199e+03,8.978e+03,1.404e+04,3.122e+04
143.3,8.888e+03,8.760e+03,1.418e+04,3.183e+04
144.9,1.032e+04,9.257e+03,1.497e+04,3.455e+04
146.4,1.239e+04,1.057e+04,1.590e+04,3.886e+04
148.0,1.616e+04,1.335e+04,1.855e+04,4.806e+04
149.5,1.903e+04,1.357e+04,2.118e+04,5.378e+04
151.1,2.033e+04,1.333e+04,2.193e+04,5.559e+04
152.7,2.185e+04,1.435e+04,2.274e+04,5.893e+04
154.2,2.282e+04,1.559e+04,2.362e+04,6.203e+04
155.8,2.519e+04,1.679e+04,2.520e+04,6.718e+04
157.3,2.929e+04,1.806e+04,2.746e+04,7.481e+04
158.9,3.262e+04,2.032e+04,2.981e+04,8.275e+04
160.4,3.405e+04,2.187e+04,3.034e+04,8.626e+04
162.0,2.861e+04,2.086e+04,2.515e+04,7.463e+04
163.6,2.372e+04,2.133e+04,2.201e+04,6.705e+04
165.1,2.148e+04,2.041e+04,2.012e+04,6.201e+04
166.7,1.725e+04,1.760e+04,1.562e+04,5.047e+04
168.2,1.437e+04,1.573e+04,1.231e+04,4.240e+04
169.8,1.155e+04,1.358e+04,9.180e+03,3.431e+04
171.3,1.066e+04,1.311e+04,8.432e+03,3.220e+04
172.9,1.030e+04,1.292e+04,9.217e+03,3.243e+04
174.5,9.456e+03,9.244e+03,8.636e+03,2.734e+04
176.0,1.059e+04,7.543e+03,9.983e+03,2.811e+04
177.6,1.375e+04,1.108e+04,1.473e+04,3.956e+04
179.1,1.542e+04,1.537e+04,1.798e+04,4.877e+04
180.7,1.733e+04,1.946e+04,2.000e+04,5.679e+04
182.3,2.368e+04,2.202e+04,2.500e+04,7.070e+04
183.8,2.921e+04,2.575e+04,3.251e+04,8.747e+04
185.4,3.738e+04,3.034e+04,4.104e+04,1.088e+05
186.9,4.905e+04,3.240e+04,5.023e+04,1.317e+05
188.5,7.256e+04,3.723e+04,7.013e+04,1.799e+05
190.0,8.826e+04,3.772e+04,8.246e+04,2.084e+05
191.6,9.793e+04,3.603e+04,8.932e+04,2.233e+05
193.2,1.044e+05,3.357e+04,9.245e+04,2.304e+05
194.7,1.008e+05,2.951e+04,8.859e+04,2.189e+05
196.3,9.291e+04,2.426e+04,7.993e+04,1.971e+05
197.8,7.852e+04,1.885e+04,6.670e+04,1.641e+05
199.4,6.880e+04,1.648e+04,5.984e+04,1.451e+05
